H2O;https://cleanet.org/clean/community/activities/c4.html
Wavelength microns;Absorptivity (0-1)
0.100000000000000000000000000000;0.000000000000000000000000000000
0.434782608695480000000000000000;0.000000000002878031146735790000
0.465125894075192000000000000000;0.000000000104260045041826000000
0.465135509478290000000000000000;0.000000000114589004951426000000
0.465145125278949000000000000000;0.000000000126520016685561000000
0.465154741477193000000000000000;0.000000000144565026616306000000
0.465164358073048000000000000000;0.000000000168905001096675000000
0.465173975066537000000000000000;0.000000000188501991793544000000
0.465183592457685000000000000000;0.000000000208768002885051000000
0.465193210246518000000000000000;0.000000000230920949029212000000
0.465202828433059000000000000000;0.000000000255219956279973000000
0.465212447017333000000000000000;0.000000000281850986993959000000
0.465222065999366000000000000000;0.000000000310984016316240000000
0.465231685379181000000000000000;0.000000000342776029782499000000
0.465241305156803000000000000000;0.000000000377392006534194000000
0.465250925332258000000000000000;0.000000000414986045527144000000
0.465260545905569000000000000000;0.000000000455710025271117000000
0.465270166876762000000000000000;0.000000000499721042324097000000
0.465279788245861000000000000000;0.000000000547176970400187000000
0.465289410012890000000000000000;0.000000000598269989104949000000
0.465299032177875000000000000000;0.000000000653480047851929000000
0.465308654740840000000000000000;0.000000000717977011177595000000
0.465318277701810000000000000000;0.000000000789536991341322000000
0.465327901060810000000000000000;0.000000000860155946469376000000
0.465337524817863000000000000000;0.000000000933712995809799000000
0.465347148972996000000000000000;0.000000001011608019574340000000
0.465356773526232000000000000000;0.000000001094249024724550000000
0.465366398477597000000000000000;0.000000001183109055169500000000
0.465376023827115000000000000000;0.000000001290998974390330000000
0.465385649574810000000000000000;0.000000001408294036941980000000
0.465395275720708000000000000000;0.000000001518733028227360000000
0.465404902264833000000000000000;0.000000001631798030032880000000
0.465414529207210000000000000000;0.000000001751799039162450000000
0.465424156547863000000000000000;0.000000001886439005005510000000
0.465433784286818000000000000000;0.000000002026447010194940000000
0.465443412424098000000000000000;0.000000002164271983851050000000
0.465453040959730000000000000000;0.000000002306363988680000000000
0.465462669893737000000000000000;0.000000002453438008309660000000
0.465472299226144000000000000000;0.000000002605514026754460000000
0.465481928956976000000000000000;0.000000002762494011321340000000
0.465491559086257000000000000000;0.000000002924246955693380000000
0.465501189614013000000000000000;0.000000003090611988554310000000
0.465510820540269000000000000000;0.000000003261409031729560000000
0.465520451865048000000000000000;0.000000003436445017435120000000
0.465530083588375000000000000000;0.000000003615517996102820000000
0.465539715710276000000000000000;0.000000003798420022960160000000
0.465549348230775000000000000000;0.000000003984957031022420000000
0.465558981149897000000000000000;0.000000004174981027560420000000
0.465568614467666000000000000000;0.000000004368541972610270000000
0.465578248184107000000000000000;0.000000004568195044463150000000
0.465587882299246000000000000000;0.000000004779169948676550000000
0.465597516813106000000000000000;0.000000005008918946280970000000
0.465607151725713000000000000000;0.000000005240708977893860000000
0.465616787037091000000000000000;0.000000005467776009737690000000
0.465626422747265000000000000000;0.000000005701966010462910000000
0.465636058856260000000000000000;0.000000005935012037383560000000
0.465645695364101000000000000000;0.000000006170963962048860000000
0.465655332270812000000000000000;0.000000006412740005679040000000
0.465664969576418000000000000000;0.000000006654026996066880000000
0.465674607280944000000000000000;0.000000006896270998701940000000
0.465684245384414000000000000000;0.000000007141516045194860000000
0.465693883886854000000000000000;0.000000007389845957384010000000
0.465703522788288000000000000000;0.000000007641224986087990000000
0.465713162088741000000000000000;0.000000007895585962813810000000
0.465722801788238000000000000000;0.000000008152840957897920000000
0.465732441886803000000000000000;0.000000008412880947439310000000
0.465742082384462000000000000000;0.000000008675578033745520000000
0.465751723281239000000000000000;0.000000008940778006838460000000
0.465761364577158000000000000000;0.000000009208299012186670000000
0.465771006272245000000000000000;0.000000009477929996393190000000
0.465780648366525000000000000000;0.000000009749441032269600000000
0.465790290860022000000000000000;0.000000010022561003353300000000
0.465799933752761000000000000000;0.000000010296998032011100000000
0.465809577044767000000000000000;0.000000010572461017766000000000
0.465819220736064000000000000000;0.000000010848729026236000000000
0.465828864826678000000000000000;0.000000011126202958955400000000
0.465838509316633000000000000000;0.000000011415710043927200000000
0.465848154205954000000000000000;0.000000011705734048739200000000
0.465857799494666000000000000000;0.000000011987321024697900000000
0.465867445182793000000000000000;0.000000012265143012335500000000
0.465877091270361000000000000000;0.000000012540793958848400000000
0.465886737757395000000000000000;0.000000012813966998592700000000
0.465896384643918000000000000000;0.000000013084286987208300000000
0.465906031929956000000000000000;0.000000013351796002147900000000
0.465915679615534000000000000000;0.000000013620647054679600000000
0.465925327700677000000000000000;0.000000013915341989800800000000
0.465934976185409000000000000000;0.000000014186634977875200000000
0.465944625069755000000000000000;0.000000014444819007586300000000
0.465954274353740000000000000000;0.000000014712888019019500000000
0.465963924037389000000000000000;0.000000014969060990743800000000
0.465973574120726000000000000000;0.000000015211283010963000000000
0.465983224603777000000000000000;0.000000015444913015194600000000
0.465992875486567000000000000000;0.000000015670672981471500000000
0.466002526769119000000000000000;0.000000015888222959503700000000
0.466012178451460000000000000000;0.000000016097159050154600000000
0.466021830533613000000000000000;0.000000016297077021221200000000
0.466031483015604000000000000000;0.000000016487601950387900000000
0.466041135897458000000000000000;0.000000016668400992792000000000
0.466050789179199000000000000000;0.000000016839168948124000000000
0.466060442860853000000000000000;0.000000016999661012207000000000
0.466070096942443000000000000000;0.000000017149687003836800000000
0.466079751423996000000000000000;0.000000017289091047700800000000
0.466089406305535000000000000000;0.000000017417799980101700000000
0.466099061587086000000000000000;0.000000017535792040668200000000
0.466108717268673000000000000000;0.000000017643161043245900000000
0.466118373350322000000000000000;0.000000017740289015577600000000
0.466128029832057000000000000000;0.000000017830187992729000000000
0.466137686713903000000000000000;0.000000017929269957583900000000
0.466147343995885000000000000000;0.000000018001886981089400000000
0.466157001678028000000000000000;0.000000018063155970971000000000
0.466166659760357000000000000000;0.000000018115144051478200000000
0.466176318242896000000000000000;0.000000018158451964289700000000
0.466185977125671000000000000000;0.000000018193534012667100000000
0.466195636408706000000000000000;0.000000018220976949479000000000
0.466205296092027000000000000000;0.000000018241541055452600000000
0.466214956175657000000000000000;0.000000018256854028564400000000
0.466224616659623000000000000000;0.000000018275410962331800000000
0.466234277543948000000000000000;0.000000018285058023259600000000
0.466243938828658000000000000000;0.000000018289433967311200000000
0.466253600513778000000000000000;0.000000018290833958545200000000
0.466263262599333000000000000000;0.000000018301674953313800000000
0.466272925085347000000000000000;0.000000018303030979716100000000
0.466282587971845000000000000000;0.000000018304126991886000000000
0.466292251258852000000000000000;0.000000018321855033143200000000
0.466301914946394000000000000000;0.000000018317543037937900000000
0.466311579034495000000000000000;0.000000018308027982527600000000
0.466321243523179000000000000000;0.000000018291194003872100000000
0.466330908412473000000000000000;0.000000018284628033882200000000
0.466340573702400000000000000000;0.000000018278632052393100000000
0.466350239392986000000000000000;0.000000018272863999691000000000
0.466359905484256000000000000000;0.000000018267862000875800000000
0.466369571976234000000000000000;0.000000018270402968312300000000
0.466379238868946000000000000000;0.000000018309587956899500000000
0.466388906162416000000000000000;0.000000018331777984492700000000
0.466398573856669000000000000000;0.000000018364544995819200000000
0.466408241951730000000000000000;0.000000018399364032362100000000
0.466417910447625000000000000000;0.000000018430379000733400000000
0.466427579344377000000000000000;0.000000018455917016879700000000
0.466437248642013000000000000000;0.000000018484552999353800000000
0.466446918340556000000000000000;0.000000018521536970794700000000
0.466456588440033000000000000000;0.000000018575910032403400000000
0.466466258940467000000000000000;0.000000018623425024344400000000
0.466475929841884000000000000000;0.000000018689858993781200000000
0.466485601144308000000000000000;0.000000018821867953100500000000
0.466495272847765000000000000000;0.000000018932796996828900000000
0.466504944952280000000000000000;0.000000019061211053994500000000
0.466514617457877000000000000000;0.000000019176044974145200000000
0.466524290364582000000000000000;0.000000019297228037729000000000
0.466533963672419000000000000000;0.000000019427362052404400000000
0.466543637381413000000000000000;0.000000019590743027819700000000
0.466553311491590000000000000000;0.000000019834892950321100000000
0.466562986002974000000000000000;0.000000020080630047658600000000
0.466572660915590000000000000000;0.000000020313304038843700000000
0.466582336229464000000000000000;0.000000020567702985196900000000
0.466592011944619000000000000000;0.000000020860012051038300000000
0.466601688061082000000000000000;0.000000021170353026178600000000
0.466611364578877000000000000000;0.000000021505520031439600000000
0.466621041498028000000000000000;0.000000021868837962735200000000
0.466630718818562000000000000000;0.000000022262176990750500000000
0.466640396540503000000000000000;0.000000022687508982599500000000
0.466650074663876000000000000000;0.000000023149847039327700000000
0.466659753188705000000000000000;0.000000023652248049010900000000
0.466669432115017000000000000000;0.000000024185684011079900000000
0.466679111442835000000000000000;0.000000024756176997264800000000
0.466688791172186000000000000000;0.000000025383017021596300000000
0.466698471303093000000000000000;0.000000026083807003196600000000
0.466708151835583000000000000000;0.000000026847350009795400000000
0.466717832769679000000000000000;0.000000027661849033577800000000
0.466727514105406000000000000000;0.000000028474575031189900000000
0.466737195842791000000000000000;0.000000029314780047862100000000
0.466746877981858000000000000000;0.000000030190632993587500000000
0.466756560522631000000000000000;0.000000031101978992254000000000
0.466766243465136000000000000000;0.000000032053091958417200000000
0.466775926809399000000000000000;0.000000033062798054928100000000
0.466785610555442000000000000000;0.000000034122628944643900000000
0.466795294703293000000000000000;0.000000035255025010450000000000
0.466804979252976000000000000000;0.000000036449153029138900000000
0.466814664204516000000000000000;0.000000037668644981003800000000
0.466824349557937000000000000000;0.000000038913221978020800000000
0.466834035313265000000000000000;0.000000040201518003435400000000
0.466843721470525000000000000000;0.000000041555030971807100000000
0.466853408029743000000000000000;0.000000042968117952568700000000
0.466863094990942000000000000000;0.000000044357975959030700000000
0.466872782354148000000000000000;0.000000045753943966886400000000
0.466882470119386000000000000000;0.000000047168527972374400000000
0.466892158286681000000000000000;0.000000048600343971472200000000
0.466901846856058000000000000000;0.000000050047088029359100000000
0.466911535827543000000000000000;0.000000051507347054169400000000
0.466921225201159000000000000000;0.000000052989012955251300000000
0.466930914976933000000000000000;0.000000054554598949430000000000
0.466940605154888000000000000000;0.000000056141739035453500000000
0.466950295735051000000000000000;0.000000057662581043338400000000
0.466959986717447000000000000000;0.000000059169429023064900000000
0.466969678102099000000000000000;0.000000060672149970741900000000
0.466979369889034000000000000000;0.000000062168155956499000000000
0.466989062078277000000000000000;0.000000063651268034092800000000
0.466998754669852000000000000000;0.000000065123979986481100000000
0.467008447663784000000000000000;0.000000066585405966712600000000
0.467018141060099000000000000000;0.000000068029346045328500000000
0.467027834858822000000000000000;0.000000069452939954750500000000
0.467037529059977000000000000000;0.000000070854150990840000000000
0.467047223663590000000000000000;0.000000072230964986985700000000
0.467056918669686000000000000000;0.000000073581483017726200000000
0.467066614078290000000000000000;0.000000074903605984388800000000
0.467076309889427000000000000000;0.000000076189362041567700000000
0.467086006103122000000000000000;0.000000077436650980367000000000
0.467095702719399000000000000000;0.000000078716070994744300000000
0.467105399738285000000000000000;0.000000079996906987567200000000
0.467115097159804000000000000000;0.000000081206087965135500000000
0.467124794983982000000000000000;0.000000082387303979025700000000
0.467134493210843000000000000000;0.000000083540844020291200000000
0.467144191840412000000000000000;0.000000084649300013950300000000
0.467153890872715000000000000000;0.000000085719746967249900000000
0.467163590307777000000000000000;0.000000086753973005393400000000
0.467173290145622000000000000000;0.000000087751891975074200000000
0.467182990386277000000000000000;0.000000088713958956709900000000
0.467192691029765000000000000000;0.000000089651161050419100000000
0.467202392076112000000000000000;0.000000090590943968571500000000
0.467212093525343000000000000000;0.000000091486269004903400000000
0.467221795377483000000000000000;0.000000092318825029025200000000
0.467231497632558000000000000000;0.000000093103466047850200000000
0.467241200290592000000000000000;0.000000093845963999861200000000
0.467250903351611000000000000000;0.000000094549150952971700000000
0.467260606815639000000000000000;0.000000095240824005138300000000
0.467270310682702000000000000000;0.000000095900494989642500000000
0.467280014952825000000000000000;0.000000096499532031835100000000
0.467289719626033000000000000000;0.000000097034432045006700000000
0.467299424702351000000000000000;0.000000097536176024704000000000
0.467309130181804000000000000000;0.000000097999611980981200000000
0.467318836064417000000000000000;0.000000098404683956943000000000
0.467328542350216000000000000000;0.000000098754317945370900000000
0.467338249039225000000000000000;0.000000099051559954155300000000
0.467347956131470000000000000000;0.000000099296358024858500000000
0.467357663626975000000000000000;0.000000099490696015003300000000
0.467367371525767000000000000000;0.000000099666553010635500000000
0.467377079827870000000000000000;0.000000099784684959303100000000
0.467386788533309000000000000000;0.000000099855464008591400000000
0.467396497642109000000000000000;0.000000099882890958191700000000
0.467406207154296000000000000000;0.000000099840102962822600000000
0.467415917069894000000000000000;0.000000099738900027901400000000
0.467425627388929000000000000000;0.000000099598215008711600000000
0.467435338111426000000000000000;0.000000099418656973604400000000
0.467445049237410000000000000000;0.000000099169839007373600000000
0.467454760766906000000000000000;0.000000098870629017255900000000
0.467464472699940000000000000000;0.000000098539831960842200000000
0.467474185036536000000000000000;0.000000098170755968851600000000
0.467483897776719000000000000000;0.000000097764863982163800000000
0.467493610920516000000000000000;0.000000097350221994752000000000
0.467503324467950000000000000000;0.000000096895888979098300000000
0.467513038419047000000000000000;0.000000096396734039494400000000
0.467522752773833000000000000000;0.000000095865989035992500000000
0.467532467532332000000000000000;0.000000095306845970810600000000
0.467542182694570000000000000000;0.000000094688080043425800000000
0.467551898260572000000000000000;0.000000094085711999092300000000
0.467561614230362000000000000000;0.000000093454022964678500000000
0.467571330603967000000000000000;0.000000092826395015066500000000
0.467581047381411000000000000000;0.000000092196343004502500000000
0.467590764562719000000000000000;0.000000091565994009279400000000
0.467600482147917000000000000000;0.000000090932447016633900000000
0.467610200137031000000000000000;0.000000090308459044230500000000
0.467619918530083000000000000000;0.000000089687891002832000000000
0.467629637327102000000000000000;0.000000089063452946014400000000
0.467639356528110000000000000000;0.000000088429925049204900000000
0.467649076133135000000000000000;0.000000087829810979656000000000
0.467658796142200000000000000000;0.000000087248331004374800000000
0.467668516555330000000000000000;0.000000086646851027438700000000
0.467678237372553000000000000000;0.000000086077988958877000000000
0.467687958593891000000000000000;0.000000085518508052828700000000
0.467697680219371000000000000000;0.000000084962930024801200000000
0.467707402249018000000000000000;0.000000084381305054392900000000
0.467717124682857000000000000000;0.000000083786715010525400000000
0.467726847520913000000000000000;0.000000083231450953569200000000
0.467736570763211000000000000000;0.000000082712690030462000000000
0.467746294409777000000000000000;0.000000082189064998239300000000
0.467756018460636000000000000000;0.000000081657527961631600000000
0.467765742915813000000000000000;0.000000081147093045075300000000
0.467775467775333000000000000000;0.000000080638879018657400000000
0.467785193039221000000000000000;0.000000080148869985308100000000
0.467794918707504000000000000000;0.000000079637468952675800000000
0.467804644780205000000000000000;0.000000079113099960004300000000
0.467814371257350000000000000000;0.000000078576611994840600000000
0.467824098138965000000000000000;0.000000078021889948765000000000
0.467833825425074000000000000000;0.000000077464999970189300000000
0.467843553115703000000000000000;0.000000076894024036988600000000
0.467853281210877000000000000000;0.000000076296248985308100000000
0.467863009710622000000000000000;0.000000075648728947719200000000
0.467872738614962000000000000000;0.000000074978805053582700000000
0.467882467923923000000000000000;0.000000074324794985258800000000
0.467892197637530000000000000000;0.000000073791962984515200000000
0.467901927755808000000000000000;0.000000073203164974167100000000
0.467911658278782000000000000000;0.000000072565372044586200000000
0.467921389206479000000000000000;0.000000071905512988301700000000
0.467931120538922000000000000000;0.000000071226040954108800000000
0.467940852276138000000000000000;0.000000070527113038565400000000
0.467950584418151000000000000000;0.000000069803845037519400000000
0.467960316964987000000000000000;0.000000069038857963832400000000
0.467970049916671000000000000000;0.000000068231474026347900000000
